Time (s),"Breathing (0.3-0.7Hz, norm)","Heartbeat (0.8-2.0Hz, norm)"
0.004167,0.072963948,-0.04356139
0.014167,0.070925158,-0.033196571
0.024167,0.068827818,-0.022243513
0.034167,0.06667449,-0.010813816
0.044167,0.064467806,0.000974663
0.054167,0.062210466,0.01299918336
0.064167,0.059905231,0.025133528
0.074167,0.0575549217,0.03724941384
0.084167,0.05516241295,0.049217891
0.094167,0.05273063252,0.06091071384
0.104167,0.050262555,0.07220167
0.114167,0.0477612,0.082967857
0.124167,0.045229625,0.093090894
0.134167,0.042670924,0.1024580697
0.144167,0.040088222,0.1109634103
0.154167,0.037484671,0.1185086744
0.164167,0.03486344601,0.125004265
0.174167,0.03222774,0.1303700601
0.184167,0.02958076028,0.1345361604
0.194167,0.02692572362,0.1374435526
0.204167,0.02426585193,0.139044689
0.214167,0.021604368,0.1393039832
0.224167,0.01894449004,0.138198222
0.234167,0.01628942918,0.1357168926
0.244167,0.01364238303,0.131862425
0.254167,0.01100653222,0.1266503467
0.264167,0.008385036,0.1201093482
0.274167,0.005781027,0.1122812547
0.284167,0.003197608,0.1032209029
0.294167,0.000637846,0.092995917
0.304167,-0.001895228,0.081686384
0.314167,-0.004398631,0.069384417
0.324167,-0.006869423,0.05619361355
0.334167,-0.009304718,0.042228397
0.344167,-0.011701684,0.027613239
0.354167,-0.014057552,0.01248176187
0.364167,-0.016369611,-0.003024282
0.374167,-0.018635221,-0.018756155
0.384167,-0.020851812,-0.034559399
0.394167,-0.023016888,-0.050275234
0.404167,-0.025128031,-0.065742054
0.414167,-0.027182904,-0.080797051
0.424167,-0.029179256,-0.095277927
0.434167,-0.03111492,-0.109024685
0.444167,-0.032987824,-0.121881498
0.454167,-0.034795985,-0.133698606
0.464167,-0.03653752,-0.144334229
0.474167,-0.038210642,-0.153656469
0.484167,-0.039813666,-0.161545159
0.494167,-0.04134501,-0.167893642
0.504167,-0.042803199,-0.172610428
0.514167,-0.044186862,-0.17562072
0.524167,-0.04549474,-0.176867766
0.534167,-0.046725683,-0.176314014
0.544167,-0.047878656,-0.173942045
0.554167,-0.048952733,-0.169755259
0.564167,-0.049947106,-0.163778303
0.574167,-0.050861081,-0.156057213
0.584167,-0.05169408,-0.146659272
0.594167,-0.052445641,-0.135672567
0.604167,-0.053115422,-0.123205244
0.614167,-0.053703194,-0.109384469
0.624167,-0.054208848,-0.094355094
0.634167,-0.05463239,-0.078278046
0.644167,-0.054973945,-0.061328457
0.654167,-0.055233751,-0.04369355
0.664167,-0.055412164,-0.025570321
0.674167,-0.055509653,-0.007163041
0.684167,-0.0555268,0.01131938044
0.694167,-0.0554643,0.029666141
0.704167,-0.055322958,0.047667342
0.714167,-0.055103688,0.065116806
0.724167,-0.054807512,0.081814869
0.734167,-0.054435557,0.097571091
0.744167,-0.053989052,0.112206864
0.754167,-0.053469329,0.1255578493
0.764167,-0.052877819,0.1374762302
0.774167,-0.052216048,0.1478327284
0.784167,-0.051485637,0.1565183594
0.794167,-0.050688296,0.1634459
0.804167,-0.049825826,0.1685510415
0.814167,-0.04890011,0.1717932148
0.824167,-0.047913117,0.1731560698
0.834167,-0.046866892,0.1726476033
0.844167,-0.045763555,0.1702999314
0.854167,-0.044605302,0.1661687073
0.864167,-0.043394394,0.1603321945
0.874167,-0.042133158,0.1528900058
0.884167,-0.040823985,0.1439615288
0.894167,-0.03946932,0.1336840591
0.904167,-0.038071664,0.1222106705
0.914167,-0.03663357,0.1097078549
0.924167,-0.035157633,0.096352968
0.934167,-0.033646493,0.082331521
0.944167,-0.032102829,0.067834361
0.954167,-0.030529352,0.053054786
0.964167,-0.028928804,0.03818563902
0.974167,-0.027303955,0.023416432
0.984167,-0.025657593,0.008930543
0.994167,-0.023992527,-0.005097464
1.004167,-0.022311578,-0.018504355
1.014167,-0.020617578,-0.03114054
1.024167,-0.018913362,-0.042872137
1.034167,-0.017201767,-0.053582771
1.044167,-0.015485629,-0.063175054
1.054167,-0.013767773,-0.071571758
1.064167,-0.012051015,-0.078716625
1.074167,-0.010338155,-0.084574836
1.084167,-0.008631975,-0.089133113
1.094167,-0.006935231,-0.092399465
1.104167,-0.005250652,-0.094402582
1.114167,-0.003580938,-0.095190893
1.124167,-0.00192875,-0.094831301
1.134167,-0.000296712,-0.093407628
1.144167,0.001312594,-0.091018791
1.154167,0.002896635,-0.087776749
1.164167,0.004452926,-0.083804248
1.174167,0.005979038,-0.079232423
1.184167,0.007472596,-0.074198281
1.194167,0.008931288,-0.068842122
1.204167,0.01035286436,-0.063304931
1.214167,0.01173514312,-0.057725803
1.224167,0.01307601143,-0.052239423
1.234167,0.01437342939,-0.046973657
1.244167,0.0156254326,-0.042047286
1.254167,0.01683013484,-0.03756792
1.264167,0.01798573061,-0.033630128
1.274167,0.01909049756,-0.030313802
1.284167,0.020142799,-0.027682791
1.294167,0.021141085,-0.025783823
1.304167,0.02208389586,-0.024645719
1.314167,0.022969864,-0.024278931
1.324167,0.023797713,-0.024675388
1.334167,0.024566264,-0.025808665
1.344167,0.02527443124,-0.027634473
1.354167,0.02592122909,-0.030091445
1.364167,0.02650576915,-0.033102229
1.374167,0.02702726294,-0.036574844
1.384167,0.027485022,-0.040404297
1.394167,0.027878461,-0.044474424
1.404167,0.028207092,-0.04865992
1.414167,0.02847053448,-0.05282854
1.424167,0.02866850563,-0.056843409
1.434167,0.028800827,-0.060565429
1.444167,0.02886742248,-0.063855721
1.454167,0.02886831689,-0.066578074
1.464167,0.02880363726,-0.068601353
1.474167,0.02867361145,-0.069801841
1.484167,0.0284785676,-0.070065456
1.494167,0.028218933,-0.069289836
1.504167,0.02789523455,-0.067386237
1.514167,0.02750809475,-0.064281234
1.524167,0.027058233,-0.059918191
1.534167,0.02654646418,-0.054258485
1.544167,0.02597369454,-0.047282466
1.554167,0.02534092283,-0.038990154
1.564167,0.02464923711,-0.029401642
1.574167,0.023899813,-0.018557236
1.584167,0.02309391173,-0.006517304
1.594167,0.022232878,0.006638144
1.604167,0.021318136,0.020810129
1.614167,0.02035119192,0.035881643
1.624167,0.01933362411,0.051718807
1.634167,0.01826708628,0.06817226
1.644167,0.01715330219,0.085078735
1.654167,0.015994063,0.1022628232
1.664167,0.014791225,0.1195388828
1.674167,0.01354670641,0.136713088
1.684167,0.01226248206,0.1535855821
1.694167,0.01094058348,0.1699527175
1.704167,0.009583094,0.1856093565
1.714167,0.008192144,0.20035121
1.724167,0.00676991,0.2139771916
1.734167,0.005318609,0.2262917626
1.744167,0.003840498,0.237107247
1.754167,0.002337865,0.2462460924
1.764167,0.000813031,0.2535430593
1.774167,-0.000731657,0.2588473118
1.784167,-0.002293831,0.2620243961
1.794167,-0.0038711,0.262958085
1.804167,-0.00546106,0.2615520685
1.814167,-0.007061294,0.2577314789
1.824167,-0.008669378,0.251444227
1.834167,-0.010282884,0.2426621399
1.844167,-0.011899381,0.2313818836
1.854167,-0.013516446,0.2176256571
1.864167,-0.015131657,0.2014416469
1.874167,-0.016742607,0.182904228
1.884167,-0.018346903,0.162113904
1.894167,-0.019942166,0.1391969753
1.904167,-0.021526044,0.11430493
1.914167,-0.023096204,0.087613553
1.924167,-0.024650345,0.05932175095
1.934167,-0.026186197,0.02965009457
1.944167,-0.027701523,-0.001160916
1.954167,-0.029194125,-0.032852855
1.964167,-0.030661846,-0.065151633
1.974167,-0.032102572,-0.097769995
1.984167,-0.033514236,-0.130410239
1.994167,-0.034894822,-0.162767126
2.004167,-0.036242364,-0.19453095
2.014167,-0.037554953,-0.225390749
2.024167,-0.038830733,-0.255037602
2.034167,-0.040067913,-0.283168
2.044167,-0.041264759,-0.309487225
2.054167,-0.042419604,-0.333712717
2.064167,-0.043530844,-0.355577383
2.074167,-0.044596943,-0.374832801
2.084167,-0.045616436,-0.391252277
2.094167,-0.046587927,-0.404633722
2.104167,-0.04751009,-0.414802308
2.114167,-0.048381677,-0.42161285
2.124167,-0.04920151,-0.424951907
2.134167,-0.049968488,-0.424739537
2.144167,-0.050681586,-0.420930711
2.154167,-0.051339856,-0.413516329
2.164167,-0.051942426,-0.402523839
2.174167,-0.052488505,-0.388017438
2.184167,-0.052977376,-0.370097838
2.194167,-0.053408404,-0.348901585
2.204167,-0.053781028,-0.324599957
2.214167,-0.05409477,-0.297397406
2.224167,-0.054349226,-0.267529586
2.234167,-0.054544071,-0.235260972
2.244167,-0.054679059,-0.200882088
2.254167,-0.054754017,-0.164706383
2.264167,-0.05476885,-0.127066778
2.274167,-0.054723539,-0.088311938
2.284167,-0.054618137,-0.048802295
2.294167,-0.054452772,-0.008905895
2.304167,-0.054227644,0.031005896
2.314167,-0.053943023,0.070562763
2.324167,-0.053599251,0.1093998231
2.334167,-0.053196737,0.1471619687
2.344167,-0.052735957,0.183508094
2.354167,-0.052217454,0.218115155
2.364167,-0.051641837,0.2506819957
2.374167,-0.051009773,0.2809328788
2.384167,-0.050321996,0.3086206725
2.394167,-0.049579297,0.3335296331
2.404167,-0.048782525,0.355477743
2.414167,-0.047932588,0.3743185625
2.424167,-0.047030447,0.3899425608
2.434167,-0.046077116,0.4022779065
2.444167,-0.045073664,0.4112906972
2.454167,-0.044021207,0.4169846263
2.464167,-0.042920911,0.4194000914
2.474167,-0.04177399,0.4186127593
2.484167,-0.0405817,0.4147316154
2.494167,-0.039345346,0.4078965323
2.504167,-0.03806627,0.3982754022
2.514167,-0.036745859,0.3860608851
2.524167,-0.035385536,0.3714668324
2.534167,-0.033986764,0.3547244492
2.544167,-0.032551042,0.3360782665
2.554167,-0.031079901,0.3157819955
2.564167,-0.029574911,0.2940943388
2.574167,-0.028037668,0.2712748363
2.584167,-0.026469802,0.2475798202
2.594167,-0.024872972,0.2232585529
2.604167,-0.023248865,0.1985496177
2.614167,-0.021599194,0.1736776259
2.624167,-0.019925697,0.1488502972
2.634167,-0.018230137,0.1242559632
2.644167,-0.016514299,0.1000615342
2.654167,-0.01477999,0.07641096
2.664167,-0.013029037,0.053424205
2.674167,-0.011263287,0.031196751
2.684167,-0.009484602,0.009799619
2.694167,-0.007694864,-0.010720087
2.704167,-0.005895967,-0.03033815
2.714167,-0.004089822,-0.049051748
2.724167,-0.002278349,-0.066877533
2.734167,-0.000463483,-0.083849341
2.744167,0.001352833,-0.100015585
2.754167,0.003168646,-0.115436387
2.764167,0.004981996,-0.130180513
2.774167,0.006790917,-0.144322198
2.784167,0.008593439,-0.157937909
2.794167,0.010387586,-0.171103135
2.804167,0.01217138146,-0.183889262
2.814167,0.01394284852,-0.196360614
2.824167,0.01570001015,-0.208571709
2.834167,0.017440892,-0.220564796
2.844167,0.01916352242,-0.232367724
2.854167,0.02086593624,-0.243992182
2.864167,0.022546174,-0.255432344
2.874167,0.0242022849,-0.266663956
2.884167,0.02583232773,-0.27764386
2.894167,0.02743437293,-0.288309994
2.904167,0.029006504,-0.298581838
2.914167,0.03054682,-0.308361319
2.924167,0.032053435,-0.317534148
2.934167,0.03352448304,-0.325971571
2.944167,0.034958118,-0.333532491
2.954167,0.03635251682,-0.340065941
2.964167,0.037705879,-0.345413841
2.974167,0.03901643,-0.349414013
2.984167,0.040282426,-0.351903374
2.994167,0.04150215,-0.352721267
3.004167,0.042673919,-0.351712856
3.014167,0.0437960852,-0.348732531
3.024167,0.044867035,-0.343647248
3.034167,0.04588519576,-0.336339747
3.044167,0.046849034,-0.326711589
3.054167,0.04775706,-0.31468595
3.064167,0.04860783,-0.300210109
3.074167,0.049399947,-0.283257601
3.084167,0.050132066,-0.263829974
3.094167,0.05080289,-0.24195812
3.104167,0.051411183,-0.217703148
3.114167,0.05195576,-0.191156787
3.124167,0.052435498,-0.162441297
3.134167,0.05284933738,-0.131708884
3.144167,0.053196279,-0.099140639
3.154167,0.053475392,-0.064945001
3.164167,0.053685814,-0.029355767
3.174167,0.053826754,0.0073703
3.184167,0.053897491,0.044956255
3.194167,0.05389738218,0.083108085
3.204167,0.053825862,0.1215180976
3.214167,0.05368244158,0.1598685516
3.224167,0.053466717,0.1978354502
3.234167,0.05317836382,0.2350924461
3.244167,0.052817146,0.271314793
3.254167,0.052382912,0.3061832798
3.264167,0.05187560067,0.3393880856
3.274167,0.051295239,0.3706324927
3.284167,0.050641947,0.3996364014
3.294167,0.04991593785,0.426139591
3.304167,0.04911751728,0.4499046772
3.314167,0.048247088,0.4707197257
3.324167,0.047305148,0.4884004827
3.334167,0.046292293,0.5027921973
3.344167,0.045209216,0.513771018
3.354167,0.044056711,0.521244956
3.364167,0.0428356676,0.52515441
3.374167,0.041547077,0.5254722718
3.384167,0.04019202884,0.5222036163
3.394167,0.038771713,0.5153850047
3.404167,0.037287419,0.505083424
3.414167,0.035740536,0.4913948938
3.424167,0.03413254941,0.4744427822
3.434167,0.032465046,0.4543758576
3.444167,0.03073970911,0.4313661292
3.454167,0.02895831834,0.4056065109
3.464167,0.02712275,0.3773083532
3.474167,0.025234974,0.3466988861
3.484167,0.023297054,0.314018614
3.494167,0.021311147,0.279518704
3.504167,0.019279499,0.2434584045
3.514167,0.017204445,0.2061025304
3.524167,0.01508840737,0.1677190441
3.534167,0.01293389359,0.1285767598
3.544167,0.0107434938,0.088943192
3.554167,0.008519879,0.049082561
3.564167,0.006265799,0.009253978
3.574167,0.003984079,-0.030290208
3.584167,0.001677618,-0.069305865
3.594167,-0.000650615,-0.107558376
3.604167,-0.002997581,-0.144823751
3.614167,-0.005360178,-0.180889591
3.624167,-0.007735241,-0.215555885
3.634167,-0.010119546,-0.248635685
3.644167,-0.012509815,-0.279955638
3.654167,-0.014902714,-0.309356419
3.664167,-0.017294864,-0.336693061
3.674167,-0.019682838,-0.3618352
3.684167,-0.022063169,-0.384667259
3.694167,-0.024432349,-0.405088568
3.704167,-0.026786837,-0.423013447
3.714167,-0.029123064,-0.438371241
3.724167,-0.031437429,-0.451106338
3.734167,-0.033726312,-0.461178157
3.744167,-0.035986074,-0.46856111
3.754167,-0.038213059,-0.473244554
3.764167,-0.040403603,-0.475232711
3.774167,-0.042554035,-0.474544573
3.784167,-0.04466068,-0.471213771
3.794167,-0.046719868,-0.465288412
3.804167,-0.048727933,-0.456830876
3.814167,-0.050681221,-0.44591756
3.824167,-0.052576094,-0.432638561
3.834167,-0.054408933,-0.417097287
3.844167,-0.056176142,-0.399409997
3.854167,-0.057874155,-0.379705238
3.864167,-0.059499438,-0.358123197
3.874167,-0.061048496,-0.334814939
3.884167,-0.062517876,-0.309941533
3.894167,-0.063904169,-0.283673067
3.904167,-0.065204021,-0.256187543
3.914167,-0.066414131,-0.227669652
3.924167,-0.067531259,-0.198309447
3.934167,-0.068552232,-0.168300907
3.944167,-0.069473943,-0.137840407
3.954167,-0.070293361,-0.107125115
3.964167,-0.071007534,-0.076351329
3.974167,-0.071613591,-0.045712767
3.984167,-0.072108751,-0.01539885
3.994167,-0.072490324,0.01440701312
4.004167,-0.072755715,0.043529105
4.014167,-0.072902434,0.071801012
4.024167,-0.072928093,0.099067147
4.034167,-0.072830414,0.1251841484
4.044167,-0.072607237,0.1500221325
4.054167,-0.072256516,0.1734657646
4.064167,-0.071776332,0.1954151317
4.074167,-0.07116489,0.2157863914
4.084167,-0.07042053,0.2345121815
4.094167,-0.069541725,0.2515417776
4.104167,-0.068527089,0.2668409916
4.114167,-0.067375382,0.2803918098
4.124167,-0.066085508,0.2921917777
4.134167,-0.064656528,0.3022531401
4.144167,-0.063087656,0.3106017591
4.154167,-0.061378267,0.3172758304
4.164167,-0.0595279,0.3223244307
4.174167,-0.057536262,0.3258059275
4.184167,-0.055403229,0.3277862886
4.194167,-0.053128853,0.3283373302
4.204167,-0.050713366,0.3275349431
4.214167,-0.048157177,0.3254573377
4.224167,-0.045460882,0.3221833467
4.234167,-0.042625264,0.3177908236
4.244167,-0.039651295,0.3123551724
4.254167,-0.036540142,0.3059480408
4.264167,-0.033293165,0.2986362042
4.274167,-0.029911921,0.2904806654
4.284167,-0.02639817,0.2815359861
4.294167,-0.02275387,0.2718498645
4.304167,-0.018981185,0.2614629652
4.314167,-0.015082481,0.250409001
4.324167,-0.011060333,0.2387150634
4.334167,-0.006917521,0.2264021827
4.344167,-0.002657035,0.2134861119
4.354167,0.001717931,0.1999782994
4.364167,0.006203968,0.1858870286
4.374167,0.01079746435,0.1712186915
4.384167,0.01549459569,0.1559791593
4.394167,0.02029133176,0.1401752129
4.404167,0.02518343482,0.1238159919
4.414167,0.030166461,0.1069144223
4.424167,0.03523576299,0.089488582
4.434167,0.040386489,0.071562965
4.444167,0.045613588,0.05316960896
4.454167,0.05091181095,0.03434905
4.464167,0.056275712,0.01515108833
4.474167,0.061699652,-0.004364671
4.484167,0.067177807,-0.024128504
4.494167,0.072704162,-0.044060496
4.504167,0.078272525,-0.06407071
4.514167,0.083876525,-0.084059604
4.524167,0.08950962,-0.103918675
4.534167,0.095165099,-0.123531325
4.544167,0.100836093,-0.142773937
4.554167,0.1065155741,-0.161517133
4.564167,0.1121963668,-0.179627202
4.574167,0.1178711522,-0.196967652
4.584167,0.1235324759,-0.213400889
4.594167,0.1291727547,-0.228789959
4.604167,0.1347842848,-0.243000358
4.614167,0.1403592493,-0.255901845
4.624167,0.145889727,-0.267370258
4.634167,0.1513677011,-0.277289273
4.644167,0.1567850679,-0.285552111
4.654167,0.1621336464,-0.292063126
4.664167,0.1674051883,-0.296739285
4.674167,0.1725913876,-0.299511492
4.684167,0.177683891,-0.300325746
4.694167,0.1826743088,-0.299144108
4.704167,0.1875542256,-0.295945479
4.714167,0.1923152116,-0.29072616
4.724167,0.1969488337,-0.283500197
4.734167,0.201446668,-0.27429951
4.744167,0.2058003108,-0.263173799
4.754167,0.2100013912,-0.250190248
4.764167,0.2140415836,-0.235433011
4.774167,0.2179126198,-0.219002512
4.784167,0.2216063019,-0.201014565
4.794167,0.2251145151,-0.18159933
4.804167,0.2284292407,-0.160900124
4.814167,0.231542569,-0.139072114
4.824167,0.2344467124,-0.116280905
4.834167,0.2371340189,-0.092701049
4.844167,0.2395969849,-0.068514499
4.854167,0.241828269,-0.043909037
4.864167,0.2438207039,-0.019076684
4.874167,0.2455673118,0.005787877
4.884167,0.2470613155,0.03048884463
4.894167,0.2482961525,0.05483080747
4.904167,0.2492654878,0.078620189
4.914167,0.2499632263,0.1016666362
4.924167,0.2503835261,0.1237843426
4.934167,0.250520811,0.1447933029
4.944167,0.2503697811,0.1645205054
4.954167,0.2499254285,0.1828010624
4.964167,0.2491830454,0.1994792836
4.974167,0.2481382378,0.2144096986
4.984167,0.2467869362,0.2274580354
4.994167,0.2451254063,0.2385021602
5.004167,0.2431502605,0.247432987
5.014167,0.2408584672,0.2541553604
5.024167,0.238247361,0.2585889154
5.034167,0.2353146538,0.2606689145
5.044167,0.2320584404,0.2603470626
5.054167,0.2284772105,0.2575922933
5.064167,0.2245698555,0.2523915199
5.074167,0.2203356761,0.2447503418
5.084167,0.2157743901,0.2346936904
5.094167,0.2108861386,0.2222664
5.104167,0.2056714922,0.2075336825
5.114167,0.200131457,0.1905814881
5.124167,0.1942674796,0.1715167246
5.134167,0.1880814508,0.1504673162
5.144167,0.1815757105,0.1275820739
5.154167,0.17475305,0.1030303562
5.164167,0.1676167163,0.077001495
5.174167,0.1601704109,0.049703971
5.184167,0.1524182946,0.02136431049
5.194167,0.1443649858,-0.007774293
5.204167,0.1360155617,-0.037453652
5.214167,0.1273755567,-0.067402552
5.224167,0.1184509617,-0.097338998
5.234167,0.1092482215,-0.126972725
5.244167,0.099774232,-0.156007965
5.254167,0.090036337,-0.184146421
5.264167,0.080042324,-0.211090419
5.274167,0.069800418,-0.236546208
5.284167,0.059319278,-0.260227339
5.294167,0.048607989,-0.281858093
5.304167,0.037676054,-0.301176902
5.314167,0.02653339,-0.317939699
5.324167,0.01519031508,-0.331923158
5.334167,0.003657542,-0.342927757
5.344167,-0.008053833,-0.350780622
5.354167,-0.019932339,-0.355338099
5.364167,-0.031966144,-0.356488006
5.374167,-0.044143066,-0.354151528
5.384167,-0.056450583,-0.348284713
5.394167,-0.068875851,-0.338879549
5.404167,-0.081405713,-0.325964586
5.414167,-0.094026716,-0.309605097
5.424167,-0.106725126,-0.289902753
5.434167,-0.119486942,-0.266994832
5.444167,-0.132297913,-0.241052948
5.454167,-0.145143555,-0.212281317
5.464167,-0.158009167,-0.180914598
5.474167,-0.17087985,-0.147215305
5.484167,-0.183740525,-0.111470865
5.494167,-0.19657595,-0.073990322
5.504167,-0.20937074,-0.035100777
5.514167,-0.222109387,0.004856424
5.524167,-0.234776279,0.04552965505
5.534167,-0.24735572,0.086561107
5.544167,-0.259831953,0.12759092
5.554167,-0.272189175,0.1682613089
5.564167,-0.284411566,0.2082206014
5.574167,-0.296483302,0.2471271345
5.584167,-0.308388584,0.2846529424
